r (A),g(r)_weighted_Li-Cl,g(r)_unweighted_Li-Cl,g(r)_weighted_K-Cl,g(r)_unweighted_K-Cl,S_i_Li-Cl,S_i_K-Cl,Average_SCL,lambda_BC
0.0,0.0,0.0,0.0,0.0,1.0,1.0,2.80606,0
0.007969175355355355,0.005638748505713757,0.024509249703950662,0.004818038156042064,0.03674940685197363,1.0,1.0,2.80606,0
0.01593835071071071,0.011277497011427514,0.049018499407901324,0.009636076312084128,0.07349881370394726,1.0,1.0,2.80606,0
0.023907526066066064,0.016916245517141267,0.07352774911185198,0.014454114468126191,0.11024822055592089,1.0,1.0,2.80606,0
0.03187670142142142,0.02255499402285503,0.09803699881580265,0.019272152624168256,0.14699762740789452,1.0,1.0,2.80606,0
0.03984587677677677,0.02819374252856878,0.12254624851975329,0.024090190780210317,0.18374703425986813,1.0,1.0,2.80606,0
0.04781505213213213,0.033832491034282534,0.14705549822370395,0.026073429843953392,0.19887411646174374,1.0,1.0,2.80606,0
0.05578422748748749,0.0394712395399963,0.17156474792765464,0.02607294881528663,0.1988704474334775,1.0,1.0,2.80606,0
0.06375340284284284,0.04510998804571006,0.1960739976316053,0.02607246778661987,0.1988667784052113,1.0,1.0,2.80606,0
0.07172257819819819,0.04737977346356793,0.20593979276758162,0.02607198675795311,0.19886310937694507,1.0,1.0,2.80606,0
0.07969175355355354,0.047376400073204074,0.20592513006952143,0.02607150572928635,0.19885944034867886,1.0,1.0,2.80606,0
0.0876609289089089,0.04737302668284022,0.20591046737146126,0.026071024700619585,0.19885577132041263,1.0,1.0,2.80606,0
0.09563010426426426,0.04736965329247637,0.20589580467340107,0.02607054367195283,0.19885210229214642,1.0,1.0,2.80606,0
0.10359927961961961,0.04736627990211252,0.2058811419753409,0.026030951423468843,0.19855011388927382,1.0,1.0,2.80606,0
0.11156845497497497,0.04736290651174866,0.20586647927728072,0.025990316291022334,0.198240170927762,1.0,1.0,2.80606,0
0.11953763033033032,0.047359533121384814,0.20585181657922055,0.025949681158575825,0.1979302279662502,1.0,1.0,2.80606,0
0.12750680568568568,0.04735615973102096,0.2058371538811604,0.025909046026129316,0.19762028500473838,1.0,1.0,2.80606,0
0.13547598104104103,0.04735278634065711,0.2058224911831002,0.02586841089368281,0.1973103420432266,1.0,1.0,2.80606,0
0.14344515639639638,0.04734941295029326,0.20580782848504003,0.025827775761236304,0.1970003990817148,1.0,1.0,2.80606,0
0.15141433175175173,0.0473460395599294,0.20579316578697984,0.025787140628789795,0.19669045612020297,1.0,1.0,2.80606,0
0.15938350710710708,0.047342666169565555,0.20577850308891968,0.025746505496343285,0.19638051315869118,1.0,1.0,2.80606,0
0.16735268246246246,0.0473392927792017,0.2057638403908595,0.025705870363896776,0.19607057019717936,1.0,1.0,2.80606,0
0.1753218578178178,0.04733591938883785,0.20574917769279932,0.02566523523145027,0.19576062723566756,1.0,1.0,2.80606,0
0.18329103317317316,0.047332545998473995,0.20573451499473913,0.025624600099003764,0.19545068427415577,1.0,1.0,2.80606,0
0.1912602085285285,0.04732917260811015,0.20571985229667897,0.02558396496655725,0.19514074131264394,1.0,1.0,2.80606,0
0.19922938388388386,0.047325799217746295,0.2057051895986188,0.025632156054423788,0.1955083170431154,1.0,1.0,2.80606,0
0.20719855923923922,0.04732242582738244,0.2056905269005586,0.025685213815765523,0.19591301314452694,1.0,1.0,2.80606,0
0.21516773459459457,0.04731905243701859,0.20567586420249845,0.025738271577107258,0.1963177092459385,1.0,1.0,2.80606,0
0.22313690994994995,0.047315679046654735,0.20566120150443826,0.02579132933844899,0.19672240534735003,1.0,1.0,2.80606,0
0.2311060853053053,0.04731230565629089,0.2056465388063781,0.025844387099790724,0.19712710144876158,1.0,1.0,2.80606,0
0.23907526066066065,0.04730893226592703,0.2056318761083179,0.025897444861132456,0.1975317975501731,1.0,1.0,2.80606,0
0.247044436016016,0.04730555887556318,0.20561721341025774,0.02595050262247419,0.19793649365158467,1.0,1.0,2.80606,0
0.25501361137137135,0.047302185485199336,0.20560255071219757,0.026003560383815925,0.19834118975299622,1.0,1.0,2.80606,0
0.2629827867267267,0.047298812094835475,0.20558788801413738,0.026056618145157657,0.19874588585440775,1.0,1.0,2.80606,0
0.27095196208208205,0.04729543870447163,0.20557322531607722,0.026046644447311907,0.19866981184501195,1.0,1.0,2.80606,0
0.2789211374374374,0.047292065314854116,0.20555856262126107,0.026031822666783618,0.19855675926525565,1.0,1.0,2.80606,0
0.28689031279279276,0.047288691929049304,0.2055438999430171,0.026017000886255325,0.19844370668549935,1.0,1.0,2.80606,0
0.2948594881481481,0.047285318543244484,0.20552923726477312,0.02600217910572703,0.19833065410574302,1.0,1.0,2.80606,0
0.30282866350350346,0.04728194515743967,0.20551457458652914,0.02598735732519874,0.19821760152598672,1.0,1.0,2.80606,0
0.3107978388588588,0.04727857177163485,0.20549991190828515,0.025972535544670446,0.19810454894623042,1.0,1.0,2.80606,0
0.31876701421421416,0.04727519838583004,0.2054852492300412,0.025957713764142156,0.19799149636647412,1.0,1.0,2.80606,0
0.32673618956956957,0.04727182500002522,0.2054705865517972,0.02594289198361386,0.1978784437867178,1.0,1.0,2.80606,0
0.3347053649249249,0.04726845161422041,0.20545592387355321,0.02592807020308557,0.1977653912069615,1.0,1.0,2.80606,0
0.34267454028028027,0.04726507822841559,0.20544126119530923,0.025913248422557277,0.1976523386272052,1.0,1.0,2.80606,0
0.3506437156356356,0.047261704842610774,0.20542659851706527,0.02589842664202898,0.19753928604744886,1.0,1.0,2.80606,0
0.358612890990991,0.047258331456805955,0.20541193583882128,0.02588360486150069,0.19742623346769256,1.0,1.0,2.80606,0
0.3665820663463463,0.047254958071001135,0.2053972731605773,0.0258687830809724,0.19731318088793626,1.0,1.0,2.80606,0
0.3745512417017017,0.04725158468519633,0.20538261048233333,0.02585396130044411,0.19720012830817996,1.0,1.0,2.80606,0
0.382520417057057,0.04724821129939151,0.20536794780408935,0.025839139519915812,0.19708707572842363,1.0,1.0,2.80606,0
0.3904895924124124,0.04724483791358669,0.20535328512584536,0.02582431773938752,0.19697402314866733,1.0,1.0,2.80606,0
0.39845876776776773,0.04724146452778187,0.20533862244760137,0.02580949595885923,0.19686097056891103,1.0,1.0,2.80606,0
0.4064279431231231,0.047238091141977065,0.2053239597693574,0.025794674178330933,0.1967479179891547,1.0,1.0,2.80606,0
0.41439711847847843,0.047234717756172245,0.20530929709111342,0.025779852397802644,0.1966348654093984,1.0,1.0,2.80606,0
0.4223662938338338,0.047231344370367426,0.20529463441286944,0.02576503061727435,0.1965218128296421,1.0,1.0,2.80606,0
0.43033546918918913,0.047227970984562606,0.20527997173462545,0.025750208836746058,0.1964087602498858,1.0,1.0,2.80606,0
0.4383046445445445,0.04722459759875779,0.2052653090563815,0.025735387056217765,0.19629570767012947,1.0,1.0,2.80606,0
0.4462738198998999,0.04722122421295298,0.2052506463781375,0.025720565275689472,0.19618265509037316,1.0,1.0,2.80606,0
0.45424299525525524,0.04721785082714816,0.20523598369989351,0.025705743495161183,0.19606960251061686,1.0,1.0,2.80606,0
0.4622121706106106,0.04721447744134335,0.20522132102164956,0.02569092171463289,0.19595654993086056,1.0,1.0,2.80606,0
0.47018134596596595,0.04721110405553853,0.20520665834340557,0.025676099934104593,0.19584349735110423,1.0,1.0,2.80606,0
0.4781505213213213,0.047207730669733716,0.20519199566516158,0.025661278153576304,0.19573044477134793,1.0,1.0,2.80606,0
0.48611969667667665,0.047204357279680684,0.20517733296845242,0.02564645637304801,0.19561739219159163,1.0,1.0,2.80606,0
0.494088872032032,0.04720098388931684,0.20516267027039226,0.025631634592519718,0.1955043396118353,1.0,1.0,2.80606,0
0.5020580473873874,0.04719761049895298,0.20514800757233206,0.025616812811991425,0.195391287032079,1.0,1.0,2.80606,0
0.5100272227427427,0.04719423710858913,0.2051333448742719,0.025601991031463132,0.1952782344523227,1.0,1.0,2.80606,0
0.517996398098098,0.04719086371822528,0.20511868217621174,0.025587169250934842,0.1951651818725664,1.0,1.0,2.80606,0
0.5259655734534534,0.047187490327861424,0.20510401947815154,0.025572347470406546,0.19505212929281007,1.0,1.0,2.80606,0
0.5339347488088088,0.04718411693749758,0.20508935678009138,0.025567665296619538,0.1950164161863801,1.0,1.0,2.80606,0
0.5419039241641641,0.04718074354713372,0.2050746940820312,0.02559247350150669,0.19520563984653766,1.0,1.0,2.80606,0
0.5498730995195195,0.04717737015676987,0.20506003138397103,0.02561728170639384,0.19539486350669522,1.0,1.0,2.80606,0
0.5578422748748748,0.047173996766406025,0.20504536868591086,0.025642089911280988,0.19558408716685274,1.0,1.0,2.80606,0
0.5658114502302302,0.047170623376042164,0.20503070598785067,0.02566689811616814,0.1957733108270103,1.0,1.0,2.80606,0
0.5737806255855855,0.04716724998567832,0.2050160432897905,0.02569170632105529,0.19596253448716786,1.0,1.0,2.80606,0
0.5817498009409409,0.047163876595314465,0.20500138059173031,0.02571651452594244,0.1961517581473254,1.0,1.0,2.80606,0
0.5897189762962962,0.04716050320495061,0.20498671789367015,0.025741322730829595,0.19634098180748297,1.0,1.0,2.80606,0
0.5976881516516516,0.047157129814586765,0.20497205519561,0.025766130935716742,0.1965302054676405,1.0,1.0,2.80606,0
0.6056573270070069,0.047153756424222905,0.2049573924975498,0.025790939140603892,0.19671942912779805,1.0,1.0,2.80606,0
0.6136265023623623,0.04715038303385906,0.20494272979948963,0.025815747345491045,0.1969086527879556,1.0,1.0,2.80606,0
0.6215956777177176,0.047147009643495205,0.20492806710142944,0.025840555550378196,0.19709787644811316,1.0,1.0,2.80606,0
0.629564853073073,0.04714363625313135,0.20491340440336928,0.025865363755265346,0.19728710010827072,1.0,1.0,2.80606,0
0.6375340284284283,0.04708344489181828,0.20465177806856324,0.025890171960152496,0.19747632376842825,1.0,1.0,2.80606,0
0.6455032037837838,0.046999766788966287,0.20428806482342132,0.025914980165039646,0.1976655474285858,1.0,1.0,2.80606,0
0.6534723791391391,0.046916088686114306,0.20392435157827943,0.025939788369926796,0.19785477108874336,1.0,1.0,2.80606,0
0.6614415544944945,0.04683241058326232,0.20356063833313753,0.02596459657481395,0.19804399474890091,1.0,1.0,2.80606,0
0.6694107298498498,0.04674873248041033,0.20319692508799564,0.0259894047797011,0.19823321840905847,1.0,1.0,2.80606,0
0.6773799052052052,0.04666505437755835,0.20283321184285374,0.02601421298458825,0.19842244206921603,1.0,1.0,2.80606,0
0.6853490805605605,0.04658137627470636,0.20246949859771185,0.026039021189475396,0.19861166572937355,1.0,1.0,2.80606,0
0.6933182559159159,0.04649769817185438,0.20210578535256996,0.02606382939436255,0.1988008893895311,1.0,1.0,2.80606,0
0.7012874312712712,0.046414020069002394,0.20174207210742806,0.0260886375992497,0.19899011304968867,1.0,1.0,2.80606,0
0.7092566066266266,0.04633034196615041,0.20137835886228617,0.02611344580413685,0.19917933670984622,1.0,1.0,2.80606,0
0.717225781981982,0.046246663863298426,0.20101464561714427,0.026138254009024003,0.19936856037000378,1.0,1.0,2.80606,0
0.7251949573373373,0.04616298576044644,0.20065093237200238,0.026163062213911153,0.19955778403016133,1.0,1.0,2.80606,0
0.7331641326926926,0.04607930765759446,0.20028721912686048,0.02618072807895663,0.19969252975880072,1.0,1.0,2.80606,0
0.741133308048048,0.04599562955474247,0.1999235058817186,0.02618024704469611,0.1996888606878683,1.0,1.0,2.80606,0
0.7491024834034034,0.04591195145189048,0.1995597926365767,0.02617976601043559,0.1996851916169359,1.0,1.0,2.80606,0
0.7570716587587587,0.045828273349038495,0.19919607939143477,0.026179284976175072,0.1996815225460035,1.0,1.0,2.80606,0
0.765040834114114,0.04574459524618651,0.19883236614629288,0.026178803941914547,0.19967785347507105,1.0,1.0,2.80606,0
0.7730100094694694,0.04568509226483775,0.19857373190741373,0.02617832290765403,0.19967418440413864,1.0,1.0,2.80606,0
0.7809791848248248,0.04568171887512355,0.1985590692121773,0.026177841873393507,0.19967051533320623,1.0,1.0,2.80606,0
0.7889483601801801,0.04567834548540935,0.19854440651694089,0.026177360839132986,0.1996668462622738,1.0,1.0,2.80606,0
0.7969175355355355,0.04567497209569515,0.19852974382170446,0.026176879804872464,0.19966317719134138,1.0,1.0,2.80606,0
0.8048867108908908,0.04567159870598095,0.19851508112646804,0.026154075321727716,0.19948923684425543,1.0,1.0,2.80606,0
0.8128558862462462,0.04566822531626674,0.19850041843123162,0.026086670777987965,0.19897511119366101,1.0,1.0,2.80606,0
0.8208250616016015,0.04566485192655254,0.1984857557359952,0.026019266234248207,0.19846098554306657,1.0,1.0,2.80606,0
0.8287942369569569,0.04566147853683834,0.1984710930407588,0.025951861690508452,0.19794685989247215,1.0,1.0,2.80606,0
0.8367634123123122,0.045658105147124144,0.19845643034552238,0.025884457146768697,0.1974327342418777,1.0,1.0,2.80606,0
0.8447325876676676,0.045654731757409944,0.19844176765028596,0.025817052603028943,0.1969186085912833,1.0,1.0,2.80606,0
0.8527017630230229,0.04565135836769574,0.19842710495504953,0.025749648059289185,0.19640448294068885,1.0,1.0,2.80606,0
0.8606709383783783,0.04564798497798154,0.1984124422598131,0.025682243515549433,0.19589035729009444,1.0,1.0,2.80606,0
0.8686401137337336,0.04564461158826734,0.1983977795645767,0.025619729880283496,0.19541353686199076,1.0,1.0,2.80606,0
0.876609289089089,0.04564123819855313,0.19838311686934026,0.02561924885543151,0.1954098678628216,1.0,1.0,2.80606,0
0.8845784644444443,0.045637864808838934,0.19836845417410384,0.02561876783057953,0.19540619886365246,1.0,1.0,2.80606,0
0.8925476397997998,0.04563449141912473,0.19835379147886742,0.025618286805727544,0.1954025298644833,1.0,1.0,2.80606,0
0.9005168151551551,0.04563111802941053,0.198339128783631,0.025617805780875563,0.19539886086531416,1.0,1.0,2.80606,0
0.9084859905105105,0.04563652043493732,0.19836261075058234,0.025617324756023577,0.195395191866145,1.0,1.0,2.80606,0
0.9164551658658658,0.04571505923597392,0.19870398562908675,0.025616843731171596,0.19539152286697586,1.0,1.0,2.80606,0
0.9244243412212212,0.04579359803701052,0.19904536050759114,0.02561636270631961,0.19538785386780672,1.0,1.0,2.80606,0
0.9323935165765765,0.04587213683804711,0.19938673538609553,0.02561588168146763,0.19538418486863757,1.0,1.0,2.80606,0
0.9403626919319319,0.045950675639083706,0.1997281102645999,0.025615400656615644,0.19538051586946842,1.0,1.0,2.80606,0
0.9483318672872872,0.0460292144401203,0.2000694851431043,0.025613125992016865,0.1953631659498362,1.0,1.0,2.80606,0
0.9563010426426426,0.04610775324115691,0.2004108600216087,0.02560852968949999,0.1953281078233256,1.0,1.0,2.80606,0
0.964270217997998,0.0461862920421935,0.2007522349001131,0.02560393338698312,0.19529304969681505,1.0,1.0,2.80606,0
0.9722393933533533,0.0462648308432301,0.20109360977861748,0.025599337084466246,0.19525799157030446,1.0,1.0,2.80606,0
0.9802085687087086,0.04634336964426669,0.20143498465712187,0.025594740781949378,0.1952229334437939,1.0,1.0,2.80606,0
0.988177744064064,0.046421908445303285,0.20177635953562625,0.025590144479432503,0.19518787531728332,1.0,1.0,2.80606,0
0.9961469194194194,0.046500447246339886,0.20211773441413064,0.025585548176915635,0.19515281719077276,1.0,1.0,2.80606,0
1.0041160947747747,0.04657898604737649,0.20245910929263505,0.02558095187439876,0.19511775906426218,1.0,1.0,2.80606,0
1.01208527013013,0.04665752484841308,0.20280048417113944,0.025576355571881884,0.1950827009377516,1.0,1.0,2.80606,0
1.0200544454854854,0.046736063649449676,0.20314185904964382,0.025571759269365016,0.19504764281124104,1.0,1.0,2.80606,0
1.0280236208408409,0.04681460245048627,0.2034832339281482,0.02556716296684814,0.19501258468473046,1.0,1.0,2.80606,0
1.035992796196196,0.04689314125152287,0.2038246088066526,0.025562566664331272,0.1949775265582199,1.0,1.0,2.80606,0
1.0439619715515516,0.04696821983939084,0.20415094360516534,0.025557970361814397,0.19494246843170931,1.0,1.0,2.80606,0
1.0519311469069068,0.04696484645406592,0.20413628092900726,0.02555337405929753,0.19490741030519876,1.0,1.0,2.80606,0
1.0599003222622623,0.046961473068741,0.2041216182528492,0.025548777756780654,0.19487235217868817,1.0,1.0,2.80606,0
1.0678694976176175,0.046958099683416084,0.20410695557669115,0.02554418145426378,0.1948372940521776,1.0,1.0,2.80606,0
1.075838672972973,0.046954726298091165,0.20409229290053307,0.02553958515174691,0.19480223592566703,1.0,1.0,2.80606,0
1.0838078483283282,0.046951352912766246,0.204077630224375,0.025534988849230035,0.19476717779915645,1.0,1.0,2.80606,0
1.0917770236836837,0.046947979527441334,0.20406296754821696,0.025530392546713167,0.1947321196726459,1.0,1.0,2.80606,0
1.099746199039039,0.046944606142116416,0.20404830487205888,0.025539545357472337,0.19480193239631768,1.0,1.0,2.80606,0
1.1077153743943944,0.0469412327567915,0.2040336421959008,0.025580381945167097,0.1951134119502434,1.0,1.0,2.80606,0
1.1156845497497496,0.046937859371466585,0.20401897951974277,0.025621218532861856,0.19542489150416908,1.0,1.0,2.80606,0
1.123653725105105,0.04693448598614166,0.2040043168435847,0.025662055120556613,0.19573637105809477,1.0,1.0,2.80606,0
1.1316229004604603,0.04693111260081674,0.20398965416742662,0.025702891708251373,0.19604785061202049,1.0,1.0,2.80606,0
1.1395920758158158,0.04692773921549183,0.20397499149126858,0.02574372829594613,0.19635933016594617,1.0,1.0,2.80606,0
1.147561251171171,0.04692436583016691,0.2039603288151105,0.025784564883640886,0.19667080971987186,1.0,1.0,2.80606,0
1.1555304265265265,0.04692099244484199,0.20394566613895243,0.025825401471335645,0.19698228927379757,1.0,1.0,2.80606,0
1.1634996018818817,0.04691761905951708,0.20393100346279439,0.025866238059030402,0.19729376882772326,1.0,1.0,2.80606,0
1.1714687772372372,0.04691424567419216,0.2039163407866363,0.025907074646725165,0.19760524838164897,1.0,1.0,2.80606,0
1.1794379525925924,0.046910872288867235,0.20390167811047824,0.02594791123441992,0.19791672793557466,1.0,1.0,2.80606,0
1.187407127947948,0.04690749890354232,0.2038870154343202,0.025988747822114678,0.19822820748950035,1.0,1.0,2.80606,0
1.1953763033033031,0.046904125518217404,0.20387235275816212,0.026029584409809438,0.19853968704342606,1.0,1.0,2.80606,0
1.2033454786586586,0.046900752132892486,0.20385769008200405,0.026070420997504194,0.19885116659735175,1.0,1.0,2.80606,0
1.2113146540140138,0.046897378747567574,0.203843027405846,0.02611125758519895,0.19916264615127743,1.0,1.0,2.80606,0
1.2192838293693693,0.046894005362242655,0.20382836472968793,0.02615138506772045,0.19946871703186578,1.0,1.0,2.80606,0
1.2272530047247245,0.04689063197584245,0.20381370204885607,0.026150904045359896,0.1994650480516999,1.0,1.0,2.80606,0
1.23522218008008,0.0468872585854786,0.20379903935079588,0.02615042302299934,0.19946137907153402,1.0,1.0,2.80606,0
1.2431913554354352,0.04688388519511475,0.20378437665273572,0.026149942000638783,0.19945771009136815,1.0,1.0,2.80606,0
1.2511605307907907,0.04688051180475089,0.20376971395467552,0.02614946097827823,0.19945404111120227,1.0,1.0,2.80606,0
1.259129706146146,0.046877138414387044,0.20375505125661536,0.02614897995591767,0.1994503721310364,1.0,1.0,2.80606,0
1.2670988815015014,0.04687376502402319,0.2037403885585552,0.026148498933557116,0.1994467031508705,1.0,1.0,2.80606,0
1.2750680568568566,0.04687039163365934,0.203725725860495,0.026148017911196562,0.19944303417070464,1.0,1.0,2.80606,0
1.283037232212212,0.04686701824329549,0.20371106316243484,0.026147536888836004,0.19943936519053876,1.0,1.0,2.80606,0
1.2910064075675676,0.04686364485293163,0.20369640046437465,0.02614705586647545,0.19943569621037288,1.0,1.0,2.80606,0
1.2989755829229228,0.046860271462567785,0.20368173776631449,0.026140427637855426,0.19938513964307802,1.0,1.0,2.80606,0
1.3069447582782783,0.04685689807220393,0.2036670750682543,0.026131457367423384,0.19931671923896271,1.0,1.0,2.80606,0
1.3149139336336335,0.04685352468184008,0.20365241237019413,0.026122487096991335,0.19924829883484738,1.0,1.0,2.80606,0
1.322883108988989,0.046797774327962255,0.2034100892123355,0.026113516826559293,0.19917987843073207,1.0,1.0,2.80606,0
1.3308522843443442,0.04653015421915866,0.20224685803332135,0.02610454655612725,0.19911145802661676,1.0,1.0,2.80606,0
1.3388214596996997,0.046262534110355066,0.20108362685430717,0.026095576285695202,0.19904303762250142,1.0,1.0,2.80606,0
