r (A),g(r)_weighted_Na-Cl,g(r)_unweighted_Na-Cl,g(r)_weighted_Na-Na,g(r)_unweighted_Na-Na,S_i_Na-Cl,Average_SCL,lambda_BC
0.0,0.0,0.0,0.0,0.0,1.0,4.53717,4.352426
0.01594927048048048,-3.913115896427646e-06,-1.1739347689282937e-05,0.00020088113290343568,0.0006026433987103071,1.0,4.53717,4.352426
0.03189854096096096,-7.826231792855291e-06,-2.3478695378565874e-05,0.00040176226580687137,0.0012052867974206142,1.0,4.53717,4.352426
0.04784781144144144,-1.1739347689282937e-05,-3.5218043067848814e-05,0.0006026433987103071,0.0018079301961309215,1.0,4.53717,4.352426
0.06379708192192192,-1.5652463585710583e-05,-4.695739075713175e-05,0.0008035245316137427,0.0024105735948412284,1.0,4.53717,4.352426
0.0797463524024024,-1.9565579482138225e-05,-5.869673844641468e-05,0.0010044056645171784,0.0030132169935515353,1.0,4.53717,4.352426
0.09569562288288289,-2.3478695378565874e-05,-7.043608613569763e-05,0.0012052867974206142,0.003615860392261843,1.0,4.53717,4.352426
0.11164489336336336,-4.3784363780762674e-05,-0.00013135309134228802,0.0014061679303240498,0.00421850379097215,1.0,4.53717,4.352426
0.12759416384384384,-6.461147595616923e-05,-0.0001938344278685077,0.0016070490632274855,0.004821147189682457,1.0,4.53717,4.352426
0.14354343432432431,-8.543858813157581e-05,-0.00025631576439472743,0.001742971773435238,0.005228915320305714,1.0,4.53717,4.352426
0.1594927048048048,-0.00010626570030698237,-0.0003187971009209471,0.0017404694113818191,0.005221408234145458,1.0,4.53717,4.352426
0.17544197528528527,-0.00012709281248238894,-0.00038127843744716685,0.0017379670493284,0.0052139011479852004,1.0,4.53717,4.352426
0.19139124576576577,-0.00014791992465779553,-0.00044375977397338663,0.0017354646872749812,0.005206394061824944,1.0,4.53717,4.352426
0.20734051624624625,-0.0001687470368332021,-0.0005062411104996064,0.0017329623252215626,0.005198886975664688,1.0,4.53717,4.352426
0.22328978672672672,-0.0001895741490086087,-0.0005687224470258261,0.0017304599631681435,0.0051913798895044305,1.0,4.53717,4.352426
0.2392390572072072,-0.0002104012611840152,-0.0006312037835520456,0.0017279576011147246,0.005183872803344174,1.0,4.53717,4.352426
0.2551883276876877,-0.00021277630813005115,-0.0006383289243901535,0.0017254552390613056,0.005176365717183917,1.0,4.53717,4.352426
0.2711375981681682,-0.00021402545287046765,-0.0006420763586114029,0.0017229528770078867,0.0051688586310236605,1.0,4.53717,4.352426
0.28708686864864863,-0.00021527459761088412,-0.0006458237928326524,0.0017204505149494445,0.005161351544848334,1.0,4.53717,4.352426
0.30303613912912913,-0.00021652374235130062,-0.0006495712270539019,0.0017179481528786513,0.005153844458635954,1.0,4.53717,4.352426
0.3189854096096096,-0.00021777288709171711,-0.0006533186612751513,0.0017154457908078581,0.005146337372423575,1.0,4.53717,4.352426
0.3349346800900901,-0.00021902203183213359,-0.0006570660954964008,0.0017129434287370647,0.005138830286211194,1.0,4.53717,4.352426
0.35088395057057054,-0.00022027117657255008,-0.0006608135297176503,0.0017104410666662715,0.0051313231999988145,1.0,4.53717,4.352426
0.36683322105105104,-0.00022152032131296658,-0.0006645609639388997,0.0017079387045954783,0.005123816113786435,1.0,4.53717,4.352426
0.38278249153153154,-0.00022276946605338305,-0.0006683083981601492,0.0017054363425246851,0.005116309027574055,1.0,4.53717,4.352426
0.398731762012012,-0.00022401864461128637,-0.0006720559338338592,0.0017029339804538915,0.005108801941361675,1.0,4.53717,4.352426
0.4146810324924925,-0.00022526782627914956,-0.0006758034788374487,0.0017004316183830983,0.005101294855149295,1.0,4.53717,4.352426
0.43063030297297294,-0.0002265170079470128,-0.0006795510238410384,0.0016979292658718126,0.005093787797615438,1.0,4.53717,4.352426
0.44657957345345345,-0.000227766189614876,-0.000683298568844628,0.0016954269407312883,0.005086280822193865,1.0,4.53717,4.352426
0.4625288439339339,-0.00022901537128273923,-0.0006870461138482177,0.0016929246155907643,0.005078773846772293,1.0,4.53717,4.352426
0.4784781144144144,-0.00023026455295060242,-0.0006907936588518073,0.0016904222904502403,0.005071266871350721,1.0,4.53717,4.352426
0.49442738489489485,-0.00023151373461846565,-0.000694541203855397,0.0016879199653097162,0.005063759895929149,1.0,4.53717,4.352426
0.5103766553753754,-0.00023276291628632884,-0.0006982887488589866,0.001685417640169192,0.005056252920507576,1.0,4.53717,4.352426
0.5263259258558558,-0.0002340120979541921,-0.0007020362938625763,0.0016829153150286678,0.005048745945086004,1.0,4.53717,4.352426
0.5422751963363364,-0.00023526124679859524,-0.0007057837403957858,0.001680412989888144,0.005041238969664432,1.0,4.53717,4.352426
0.5582244668168168,-0.00023651039154768818,-0.0007095311746430646,0.0016779106647476197,0.0050337319942428595,1.0,4.53717,4.352426
0.5741737372972973,-0.00023775953629678114,-0.0007132786088903434,0.001675408331165394,0.005026224993496182,1.0,4.53717,4.352426
0.5901230077777777,-0.00023900868104587407,-0.0007170260431376222,0.0016729059690946007,0.005018717907283803,1.0,4.53717,4.352426
0.6060722782582583,-0.00024025782579496704,-0.0007207734773849011,0.0016704036070238075,0.005011210821071423,1.0,4.53717,4.352426
0.6220215487387387,-0.00024150697054405994,-0.0007245209116321799,0.001667901244953014,0.0050037037348590425,1.0,4.53717,4.352426
0.6379708192192192,-0.0002427561152931529,-0.0007282683458794588,0.001665398882882221,0.004996196648646663,1.0,4.53717,4.352426
0.6539200896996997,-0.00024400526004224584,-0.0007320157801267375,0.0016628965208114277,0.004988689562434283,1.0,4.53717,4.352426
0.6698693601801802,-0.0002452544047913388,-0.0007357632143740164,0.0016603941587406343,0.004981182476221903,1.0,4.53717,4.352426
0.6858186306606606,-0.00024650354953294944,-0.0007395106485988484,0.001657891796669841,0.004973675390009523,1.0,4.53717,4.352426
0.7017679011411411,-0.00024775269427336597,-0.0007432580828200979,0.0016553894345990479,0.004966168303797144,1.0,4.53717,4.352426
0.7177171716216216,-0.00024900183901378244,-0.0007470055170413474,0.0016528870725317,0.0049586612175951,1.0,4.53717,4.352426
0.7336664421021021,-0.0002502509837541989,-0.0007507529512625968,0.0016503847104782812,0.004951154131434844,1.0,4.53717,4.352426
0.7496157125825825,-0.00025150012849461543,-0.0007545003854838463,0.0016478823484248621,0.004943647045274587,1.0,4.53717,4.352426
0.7655649830630631,-0.0002527492732350319,-0.0007582478197050958,0.0016453799863714435,0.0049361399591143305,1.0,4.53717,4.352426
0.7815142535435435,-0.0002539984179754484,-0.0007619952539263452,0.0016428776243180244,0.004928632872954073,1.0,4.53717,4.352426
0.797463524024024,-0.0002552475627158649,-0.0007657426881475947,0.0016403752622646056,0.004921125786793817,1.0,4.53717,4.352426
0.8134127945045044,-0.0002564967074562814,-0.0007694901223688442,0.0016378729002111865,0.00491361870063356,1.0,4.53717,4.352426
0.829362064984985,-0.00025774588306249935,-0.0007732376491874981,0.0016353705381577676,0.004906111614473303,1.0,4.53717,4.352426
0.8453113354654654,-0.0002589950647390393,-0.000776985194217118,0.0016328681761043485,0.004898604528313046,1.0,4.53717,4.352426
0.8612606059459459,-0.0002602442464155792,-0.0007807327392467377,0.0016303658202541026,0.004891097460762308,1.0,4.53717,4.352426
0.8772098764264263,-0.00026149342809211917,-0.0007844802842763575,0.0016278634951135784,0.004883590485340736,1.0,4.53717,4.352426
0.8931591469069069,-0.00026274260976865907,-0.0007882278293059773,0.0016253611699730544,0.004876083509919163,1.0,4.53717,4.352426
0.9091084173873873,-0.00026399179144519897,-0.000791975374335597,0.0016228588448325301,0.004868576534497591,1.0,4.53717,4.352426
0.9250576878678678,-0.0002652409731217389,-0.0007957229193652168,0.0016203565196920063,0.004861069559076019,1.0,4.53717,4.352426
0.9410069583483484,-0.0002664901547982789,-0.0007994704643948366,0.001617854194551482,0.0048535625836544465,1.0,4.53717,4.352426
0.9569562288288288,-0.0002677393364748188,-0.0008032180094244564,0.0016153518694109578,0.004846055608232874,1.0,4.53717,4.352426
0.9729054993093093,-0.00026898848827209946,-0.0008069654648162984,0.001612849544270434,0.004838548632811302,1.0,4.53717,4.352426
0.9888547697897897,-0.00027023763301251593,-0.0008107128990375479,0.0016103472191299098,0.00483104165738973,1.0,4.53717,4.352426
1.0048040402702703,-0.0002714867777529324,-0.0008144603332587973,0.0016078448889010992,0.004823534666703298,1.0,4.53717,4.352426
1.0207533107507507,-0.00027273592249334893,-0.0008182077674800468,0.0016053425268303056,0.004816027580490917,1.0,4.53717,4.352426
1.0367025812312312,-0.0002739850672337654,-0.0008219552017012963,0.0016028401647595124,0.0048085204942785375,1.0,4.53717,4.352426
1.0526518517117116,-0.0002752342119741819,-0.0008257026359225457,0.0016003378026887192,0.004801013408066158,1.0,4.53717,4.352426
1.068601122192192,-0.0002764833567145984,-0.0008294500701437952,0.0015978354406179257,0.0047935063218537775,1.0,4.53717,4.352426
1.0845503926726727,-0.00027773250145501487,-0.0008331975043650447,0.0015953330785471326,0.004785999235641398,1.0,4.53717,4.352426
1.1004996631531532,-0.00027898164619543134,-0.0008369449385862941,0.0015928307164763394,0.004778492149429018,1.0,4.53717,4.352426
1.1164489336336336,-0.0002802308198285626,-0.0008406924594856878,0.0015903283544055462,0.004770985063216639,1.0,4.53717,4.352426
1.132398204114114,-0.0002814800015051025,-0.0008444400045153075,0.0015878259923347527,0.004763477977004258,1.0,4.53717,4.352426
1.1483474745945945,-0.0002827291831816424,-0.0008481875495449273,0.0015853236302658274,0.004755970890797483,1.0,4.53717,4.352426
1.164296745075075,-0.00028397836485818235,-0.000851935094574547,0.0015828212682124088,0.004748463804637226,1.0,4.53717,4.352426
1.1802460155555554,-0.00028522754653472225,-0.0008556826396041668,0.0015803189061589897,0.004740956718476969,1.0,4.53717,4.352426
1.196195286036036,-0.0002864767282112622,-0.0008594301846337867,0.0015778165441055708,0.004733449632316713,1.0,4.53717,4.352426
1.2121445565165165,-0.0002877259098878021,-0.0008631777296634064,0.0015753141820521518,0.0047259425461564555,1.0,4.53717,4.352426
1.228093826996997,-0.00028897509156434206,-0.0008669252746930262,0.0015728118199987329,0.004718435459996199,1.0,4.53717,4.352426
1.2440430974774774,-0.00029022427324088197,-0.000870672819722646,0.0015703094579453142,0.004710928373835943,1.0,4.53717,4.352426
1.2599923679579579,-0.00029147342701124943,-0.0008744202810337483,0.0015678070958918952,0.0047034212876756855,1.0,4.53717,4.352426
1.2759416384384383,-0.0002927225717516659,-0.0008781677152549978,0.0015653047338384763,0.004695914201515429,1.0,4.53717,4.352426
1.2918909089189188,-0.00029397171649208243,-0.0008819151494762473,0.0015628023746350507,0.004688407123905152,1.0,4.53717,4.352426
1.3078401793993994,-0.0002952208612324989,-0.0008856625836974968,0.0015603000494771526,0.004680900148431458,1.0,4.53717,4.352426
1.32378944987988,-0.00029647000597291537,-0.0008894100179187462,0.0015577977243192544,0.004673393172957763,1.0,4.53717,4.352426
1.3397387203603603,-0.0002977191507133319,-0.0008931574521399957,0.001555295399161356,0.004665886197484068,1.0,4.53717,4.352426
1.3556879908408408,-0.00029896829545374837,-0.0008969048863612452,0.001552793074003458,0.004658379222010374,1.0,4.53717,4.352426
1.3716372613213212,-0.00030021744019416484,-0.0009006523205824946,0.0015502907488455597,0.004650872246536679,1.0,4.53717,4.352426
1.3875865318018017,-0.00030146658493458137,-0.0009043997548037441,0.0015477884236876614,0.0046433652710629846,1.0,4.53717,4.352426
1.4035358022822821,-0.00030271572967499784,-0.0009081471890249936,0.0015452860985297632,0.00463585829558929,1.0,4.53717,4.352426
1.4194850727627628,-0.0003039648744154143,-0.000911894623246243,0.001542783773371865,0.004628351320115596,1.0,4.53717,4.352426
1.4354343432432433,-0.00030521401915583083,-0.0009156420574674925,0.0015402814464807251,0.004620844339442176,1.0,4.53717,4.352426
1.4513836137237237,-0.0003064631638962473,-0.000919389491688742,0.0015377790844273063,0.004613337253281919,1.0,4.53717,4.352426
1.4673328842042042,-0.0003077123086366638,-0.0009231369259099913,0.0015352767223738872,0.004605830167121662,1.0,4.53717,4.352426
1.4832821546846846,-0.00030896145337708025,-0.0009268843601312408,0.0015327743603204685,0.004598323080961406,1.0,4.53717,4.352426
1.499231425165165,-0.0003102105981174967,-0.0009306317943524903,0.0015302719982670495,0.004590815994801148,1.0,4.53717,4.352426
1.5151806956456455,-0.00031145974285791325,-0.0009343792285737397,0.0015277696362136306,0.004583308908640892,1.0,4.53717,4.352426
1.5311299661261262,-0.0003127088875983297,-0.0009381266627949892,0.0015252672741602117,0.004575801822480636,1.0,4.53717,4.352426
1.5470792366066066,-0.0003139580582718296,-0.0009418741748154889,0.0015227649121067927,0.0045682947363203785,1.0,4.53717,4.352426
1.563028507087087,-0.0003152072399483695,-0.0009456217198451087,0.001520262550053374,0.004560787650160122,1.0,4.53717,4.352426
1.5789777775675675,-0.00031645642162490947,-0.0009493692648747284,0.0015177601879996646,0.004553280563998994,1.0,4.53717,4.352426
1.594927048048048,-0.00031770560330144943,-0.0009531168099043483,0.0015152578259288714,0.0045457734777866144,1.0,4.53717,4.352426
1.6108763185285284,-0.00031895478497798933,-0.000956864354933968,0.0015127554638580782,0.004538266391574235,1.0,4.53717,4.352426
1.6268255890090089,-0.00032020396665452923,-0.0009606118999635878,0.001510253101787285,0.004530759305361855,1.0,4.53717,4.352426
1.6427748594894893,-0.0003214531483310692,-0.0009643594449932076,0.0015077507397164916,0.004523252219149475,1.0,4.53717,4.352426
1.65872412996997,-0.00032270233000760914,-0.0009681069900228274,0.0015052483776456984,0.004515745132937095,1.0,4.53717,4.352426
1.6746734004504504,-0.00032395151168414905,-0.0009718545350524472,0.0015027460155749052,0.004508238046724716,1.0,4.53717,4.352426
1.6906226709309309,-0.0003252006684141478,-0.0009756020052424435,0.0015002436535041116,0.004500730960512335,1.0,4.53717,4.352426
1.7065719414114113,-0.0003264498131545643,-0.0009793494394636929,0.0014977412914333184,0.0044932238742999555,1.0,4.53717,4.352426
1.7225212118918918,-0.0003276989578949808,-0.0009830968736849425,0.0014952389293625252,0.004485716788087576,1.0,4.53717,4.352426
1.7384704823723722,-0.0003289481026353973,-0.0009868443079061918,0.0014927365673088708,0.004478209701926613,1.0,4.53717,4.352426
1.7544197528528527,-0.0003301972473758138,-0.0009905917421274414,0.0014902342052554517,0.0044707026157663554,1.0,4.53717,4.352426
1.7703690233333333,-0.0003314463921162302,-0.0009943391763486908,0.0014877318432020329,0.004463195529606099,1.0,4.53717,4.352426
1.7863182938138138,-0.00033269553685664674,-0.0009980866105699403,0.0014852294811486138,0.004455688443445842,1.0,4.53717,4.352426
1.8022675642942942,-0.0003339446815970632,-0.0010018340447911897,0.0014827271190951952,0.0044481813572855855,1.0,4.53717,4.352426
1.8182168347747747,-0.0003351938263374797,-0.001005581479012439,0.001480224757041776,0.004440674271125328,1.0,4.53717,4.352426
1.8341661052552551,-0.00013325495629822756,-0.0003997648688946827,0.0014777223949883572,0.004433167184965072,1.0,4.53717,4.352426
1.8501153757357356,0.00017872539205095075,0.0005361761761528523,0.0014752200329349382,0.004425660098804815,1.0,4.53717,4.352426
1.866064646216216,0.000490705740400129,0.0014721172212003872,0.0014727176708815193,0.004418153012644558,1.0,4.53717,4.352426
1.8820139166966967,0.0008026860887493117,0.002408058266247935,0.0014702153441232158,0.004410646032369648,1.0,4.53717,4.352426
1.8979631871771772,0.0011146664370984898,0.0033439993112954697,0.0014677130189826916,0.004403139056948075,1.0,4.53717,4.352426
1.9139124576576576,0.0014266467854476682,0.004279940356343005,0.0014652106938421677,0.0043956320815265034,1.0,4.53717,4.352426
1.929861728138138,0.0017386271337968466,0.00521588140139054,0.0014627083687016435,0.004388125106104931,1.0,4.53717,4.352426
1.9458109986186185,0.002050607482146025,0.006151822446438074,0.0014602060435611195,0.004380618130683358,1.0,4.53717,4.352426
1.961760269099099,0.0023625878304952028,0.007087763491485609,0.0014577037184205952,0.004373111155261786,1.0,4.53717,4.352426
1.9777095395795794,0.0034725069700942777,0.010417520910282833,0.0014552013932800714,0.004365604179840214,1.0,4.53717,4.352426
1.99365881006006,0.005068380995298147,0.01520514298589444,0.0014526990681395472,0.004358097204418642,1.0,4.53717,4.352426
2.0096080805405405,0.006664255020501992,0.019992765061505977,0.001450196742999023,0.004350590228997069,1.0,4.53717,4.352426
2.0255573510210207,0.008260129045705816,0.02478038713711745,0.0014476943836645765,0.00434308315099373,1.0,4.53717,4.352426
2.0415066215015014,0.009856003070909685,0.029568009212729056,0.001445192021593783,0.004335576064781349,1.0,4.53717,4.352426
2.057455891981982,0.011451877096113554,0.03435563128834066,0.0014426896595229899,0.00432806897856897,1.0,4.53717,4.352426
2.0734051624624623,0.01304775112131738,0.03914325336395214,0.0014401872974521967,0.00432056189235659,1.0,4.53717,4.352426
2.089354432942943,0.015015830499774643,0.04504749149932393,0.0014376849353814032,0.00431305480614421,1.0,4.53717,4.352426
2.105303703423423,0.02044072614096182,0.06132217842288547,0.00143518257331061,0.00430554771993183,1.0,4.53717,4.352426
2.121252973903904,0.02586562178214915,0.07759686534644746,0.0014326802112398168,0.0042980406337194505,1.0,4.53717,4.352426
2.137202244384384,0.03129051742333633,0.09387155227000898,0.0014301778491690237,0.004290533547507071,1.0,4.53717,4.352426
2.153151514864865,0.03671541306452366,0.11014623919357099,0.00142767548709823,0.0042830264612946905,1.0,4.53717,4.352426
2.1691007853453455,0.042140308705710984,0.12642092611713296,0.001425173125042998,0.004275519375128994,1.0,4.53717,4.352426
2.1850500558258257,0.05249038279384689,0.1574711483815407,0.001422670762989579,0.004268012288968738,1.0,4.53717,4.352426
2.2009993263063063,0.0629545110391507,0.18886353311745213,0.00142016840093616,0.0042605052028084804,1.0,4.53717,4.352426
2.2169485967867866,0.0791722462470924,0.2375167387412772,0.0014176660388827414,0.004252998116648224,1.0,4.53717,4.352426
2.2328978672672672,0.09966444377329532,0.298993331319886,0.0014151636768293223,0.004245491030487967,1.0,4.53717,4.352426
2.2488471377477475,0.11784384948517881,0.35353154845553647,0.0014126613147759034,0.0042379839443277105,1.0,4.53717,4.352426
2.264796408228228,0.14272320272662947,0.4281696081798884,0.0014101589527224844,0.004230476858167453,1.0,4.53717,4.352426
2.280745678708709,0.16951518567182933,0.508545557015488,0.0014076565906690655,0.004222969772007197,1.0,4.53717,4.352426
2.296694949189189,0.1944772369646659,0.5834317108939977,0.0014051542286156464,0.00421546268584694,1.0,4.53717,4.352426
2.3126442196696697,0.24523908583696669,0.7357172575109001,0.0014026518984904708,0.004207955695471412,1.0,4.53717,4.352426
2.32859349015015,0.2940341283146405,0.8821023849439215,0.0014001495733325727,0.004200448719997718,1.0,4.53717,4.352426
2.3445427606306306,0.3217464258788326,0.9652392776364979,0.0013976472481746745,0.0041929417445240235,1.0,4.53717,4.352426
2.360492031111111,0.34106387659881476,1.0231916297964443,0.0013951449230167764,0.0041854347690503295,1.0,4.53717,4.352426
2.3764413015915915,0.36038132731879735,1.0811439819563922,0.0013926425978588782,0.004177927793576635,1.0,4.53717,4.352426
2.392390572072072,0.4249052603638517,1.274715781091555,0.0013901402727009798,0.00417042081810294,1.0,4.53717,4.352426
2.4083398425525524,0.46122831335531145,1.3836849400659343,0.001387637947543082,0.004162913842629246,1.0,4.53717,4.352426
2.424289113033033,0.5197925737349602,1.559377721204881,0.0013851356223851836,0.004155406867155551,1.0,4.53717,4.352426
2.4402383835135133,0.5805988642953012,1.7417965928859036,0.0013826332972272852,0.004147899891681856,1.0,4.53717,4.352426
2.456187653993994,0.682410762041443,2.0472322861243293,0.001576564266554337,0.004729692799663011,1.0,4.53717,4.352426
2.472136924474474,0.7032682488948778,2.1098047466846337,0.0018092829039612374,0.0054278487118837124,1.0,4.53717,4.352426
